# Partition function for "14N14N (44)".
# Temperature range: 1-9000K.
#T,K           Q(T)

   1                 6.0294
   2                 6.5197
   3                 7.4330
   4                 8.5646
   5                 9.8531
   6                11.2523
   7                12.7224
   8                14.2349
   9                15.7716
  10                17.3219
  11                18.8798
  12                20.4420
  13                22.0068
  14                23.5732
  15                25.1405
  16                26.7087
  17                28.2773
  18                29.8464
  19                31.4159
  20                32.9856
  21                34.5556
  22                36.1258
  23                37.6961
  24                39.2667
  25                40.8373
  26                42.4081
  27                43.9790
  28                45.5500
  29                47.1211
  30                48.6923
  31                50.2635
  32                51.8348
  33                53.4062
  34                54.9776
  35                56.5491
  36                58.1207
  37                59.6922
  38                61.2638
  39                62.8355
  40                64.4072
  41                65.9789
  42                67.5507
  43                69.1225
  44                70.6943
  45                72.2661
  46                73.8380
  47                75.4099
  48                76.9818
  49                78.5538
  50                80.1257
  51                81.6977
  52                83.2697
  53                84.8418
  54                86.4138
  55                87.9859
  56                89.5579
  57                91.1300
  58                92.7021
  59                94.2743
  60                95.8464
  61                97.4186
  62                98.9907
  63               100.5629
  64               102.1351
  65               103.7073
  66               105.2795
  67               106.8518
  68               108.4240
  69               109.9963
  70               111.5685
  71               113.1408
  72               114.7131
  73               116.2854
  74               117.8577
  75               119.4301
  76               121.0024
  77               122.5747
  78               124.1471
  79               125.7195
  80               127.2918
  81               128.8642
  82               130.4366
  83               132.0090
  84               133.5814
  85               135.1539
  86               136.7263
  87               138.2987
  88               139.8712
  89               141.4437
  90               143.0161
  91               144.5886
  92               146.1611
  93               147.7336
  94               149.3061
  95               150.8786
  96               152.4511
  97               154.0237
  98               155.5962
  99               157.1687
 100               158.7413
 101               160.3138
 102               161.8864
 103               163.4590
 104               165.0316
 105               166.6042
 106               168.1768
 107               169.7494
 108               171.3220
 109               172.8946
 110               174.4673
 111               176.0399
 112               177.6126
 113               179.1852
 114               180.7579
 115               182.3305
 116               183.9032
 117               185.4759
 118               187.0486
 119               188.6213
 120               190.1940
 121               191.7667
 122               193.3394
 123               194.9122
 124               196.4849
 125               198.0577
 126               199.6304
 127               201.2032
 128               202.7759
 129               204.3487
 130               205.9215
 131               207.4943
 132               209.0671
 133               210.6399
 134               212.2127
 135               213.7855
 136               215.3583
 137               216.9312
 138               218.5040
 139               220.0768
 140               221.6497
 141               223.2225
 142               224.7954
 143               226.3683
 144               227.9412
 145               229.5141
 146               231.0869
 147               232.6598
 148               234.2327
 149               235.8057
 150               237.3786
 151               238.9515
 152               240.5244
 153               242.0974
 154               243.6703
 155               245.2433
 156               246.8163
 157               248.3892
 158               249.9622
 159               251.5352
 160               253.1082
 161               254.6812
 162               256.2542
 163               257.8272
 164               259.4002
 165               260.9732
 166               262.5463
 167               264.1193
 168               265.6923
 169               267.2654
 170               268.8384
 171               270.4115
 172               271.9846
 173               273.5577
 174               275.1307
 175               276.7038
 176               278.2769
 177               279.8500
 178               281.4231
 179               282.9963
 180               284.5694
 181               286.1425
 182               287.7157
 183               289.2888
 184               290.8619
 185               292.4351
 186               294.0083
 187               295.5814
 188               297.1546
 189               298.7278
 190               300.3010
 191               301.8742
 192               303.4474
 193               305.0206
 194               306.5938
 195               308.1671
 196               309.7403
 197               311.3135
 198               312.8868
 199               314.4600
 200               316.0333
 201               317.6065
 202               319.1798
 203               320.7531
 204               322.3264
 205               323.8997
 206               325.4730
 207               327.0463
 208               328.6196
 209               330.1929
 210               331.7662
 211               333.3396
 212               334.9129
 213               336.4863
 214               338.0596
 215               339.6330
 216               341.2063
 217               342.7797
 218               344.3531
 219               345.9265
 220               347.4999
 221               349.0733
 222               350.6467
 223               352.2201
 224               353.7935
 225               355.3669
 226               356.9404
 227               358.5138
 228               360.0873
 229               361.6607
 230               363.2342
 231               364.8077
 232               366.3811
 233               367.9546
 234               369.5281
 235               371.1016
 236               372.6751
 237               374.2487
 238               375.8222
 239               377.3957
 240               378.9692
 241               380.5428
 242               382.1163
 243               383.6899
 244               385.2635
 245               386.8371
 246               388.4106
 247               389.9842
 248               391.5578
 249               393.1314
 250               394.7051
 251               396.2787
 252               397.8523
 253               399.4260
 254               400.9996
 255               402.5733
 256               404.1469
 257               405.7206
 258               407.2943
 259               408.8680
 260               410.4417
 261               412.0154
 262               413.5891
 263               415.1629
 264               416.7366
 265               418.3103
 266               419.8841
 267               421.4579
 268               423.0317
 269               424.6054
 270               426.1792
 271               427.7530
 272               429.3269
 273               430.9007
 274               432.4745
 275               434.0484
 276               435.6222
 277               437.1961
 278               438.7700
 279               440.3439
 280               441.9178
 281               443.4917
 282               445.0656
 283               446.6396
 284               448.2135
 285               449.7875
 286               451.3615
 287               452.9355
 288               454.5095
 289               456.0835
 290               457.6575
 291               459.2316
 292               460.8056
 293               462.3797
 294               463.9538
 295               465.5279
 296               467.1020
 297               468.6761
 298               470.2503
 299               471.8244
 300               473.3986
 301               474.9728
 302               476.5470
 303               478.1212
 304               479.6955
 305               481.2697
 306               482.8440
 307               484.4183
 308               485.9926
 309               487.5669
 310               489.1413
 311               490.7156
 312               492.2900
 313               493.8644
 314               495.4388
 315               497.0133
 316               498.5877
 317               500.1622
 318               501.7367
 319               503.3112
 320               504.8858
 321               506.4603
 322               508.0349
 323               509.6095
 324               511.1842
 325               512.7588
 326               514.3335
 327               515.9082
 328               517.4829
 329               519.0577
 330               520.6325
 331               522.2073
 332               523.7821
 333               525.3570
 334               526.9318
 335               528.5068
 336               530.0817
 337               531.6567
 338               533.2317
 339               534.8067
 340               536.3818
 341               537.9568
 342               539.5320
 343               541.1071
 344               542.6823
 345               544.2575
 346               545.8327
 347               547.4080
 348               548.9833
 349               550.5587
 350               552.1341
 351               553.7095
 352               555.2849
 353               556.8604
 354               558.4359
 355               560.0115
 356               561.5871
 357               563.1627
 358               564.7384
 359               566.3141
 360               567.8899
 361               569.4657
 362               571.0415
 363               572.6174
 364               574.1933
 365               575.7693
 366               577.3453
 367               578.9214
 368               580.4975
 369               582.0736
 370               583.6498
 371               585.2261
 372               586.8024
 373               588.3787
 374               589.9551
 375               591.5316
 376               593.1081
 377               594.6846
 378               596.2612
 379               597.8378
 380               599.4145
 381               600.9913
 382               602.5681
 383               604.1450
 384               605.7219
 385               607.2989
 386               608.8759
 387               610.4530
 388               612.0302
 389               613.6074
 390               615.1847
 391               616.7621
 392               618.3395
 393               619.9169
 394               621.4945
 395               623.0721
 396               624.6497
 397               626.2275
 398               627.8053
 399               629.3831
 400               630.9611
 401               632.5391
 402               634.1172
 403               635.6953
 404               637.2736
 405               638.8519
 406               640.4303
 407               642.0087
 408               643.5872
 409               645.1659
 410               646.7445
 411               648.3233
 412               649.9021
 413               651.4811
 414               653.0601
 415               654.6392
 416               656.2184
 417               657.7976
 418               659.3770
 419               660.9564
 420               662.5359
 421               664.1155
 422               665.6952
 423               667.2750
 424               668.8549
 425               670.4349
 426               672.0150
 427               673.5951
 428               675.1754
 429               676.7558
 430               678.3362
 431               679.9168
 432               681.4974
 433               683.0782
 434               684.6591
 435               686.2400
 436               687.8211
 437               689.4023
 438               690.9835
 439               692.5649
 440               694.1464
 441               695.7280
 442               697.3098
 443               698.8916
 444               700.4735
 445               702.0556
 446               703.6377
 447               705.2200
 448               706.8024
 449               708.3850
 450               709.9676
 451               711.5504
 452               713.1333
 453               714.7163
 454               716.2994
 455               717.8827
 456               719.4660
 457               721.0496
 458               722.6332
 459               724.2170
 460               725.8009
 461               727.3849
 462               728.9691
 463               730.5534
 464               732.1378
 465               733.7224
 466               735.3071
 467               736.8920
 468               738.4770
 469               740.0621
 470               741.6474
 471               743.2328
 472               744.8184
 473               746.4041
 474               747.9900
 475               749.5760
 476               751.1621
 477               752.7484
 478               754.3349
 479               755.9215
 480               757.5083
 481               759.0953
 482               760.6823
 483               762.2696
 484               763.8570
 485               765.4446
 486               767.0323
 487               768.6202
 488               770.2083
 489               771.7965
 490               773.3850
 491               774.9735
 492               776.5623
 493               778.1512
 494               779.7403
 495               781.3295
 496               782.9190
 497               784.5086
 498               786.0984
 499               787.6884
 500               789.2785
 501               790.8689
 502               792.4594
 503               794.0501
 504               795.6410
 505               797.2321
 506               798.8234
 507               800.4148
 508               802.0065
 509               803.5983
 510               805.1904
 511               806.7826
 512               808.3750
 513               809.9677
 514               811.5605
 515               813.1535
 516               814.7468
 517               816.3402
 518               817.9339
 519               819.5277
 520               821.1218
 521               822.7161
 522               824.3105
 523               825.9052
 524               827.5002
 525               829.0953
 526               830.6906
 527               832.2862
 528               833.8819
 529               835.4779
 530               837.0742
 531               838.6706
 532               840.2673
 533               841.8642
 534               843.4613
 535               845.0586
 536               846.6562
 537               848.2540
 538               849.8520
 539               851.4503
 540               853.0488
 541               854.6476
 542               856.2466
 543               857.8458
 544               859.4452
 545               861.0450
 546               862.6449
 547               864.2451
 548               865.8456
 549               867.4462
 550               869.0472
 551               870.6484
 552               872.2498
 553               873.8515
 554               875.4535
 555               877.0557
 556               878.6582
 557               880.2609
 558               881.8639
 559               883.4671
 560               885.0706
 561               886.6744
 562               888.2785
 563               889.8828
 564               891.4874
 565               893.0922
 566               894.6973
 567               896.3027
 568               897.9084
 569               899.5144
 570               901.1206
 571               902.7271
 572               904.3339
 573               905.9410
 574               907.5483
 575               909.1559
 576               910.7639
 577               912.3721
 578               913.9806
 579               915.5894
 580               917.1984
 581               918.8078
 582               920.4175
 583               922.0275
 584               923.6377
 585               925.2483
 586               926.8591
 587               928.4703
 588               930.0818
 589               931.6936
 590               933.3056
 591               934.9180
 592               936.5307
 593               938.1437
 594               939.7570
 595               941.3706
 596               942.9846
 597               944.5988
 598               946.2134
 599               947.8283
 600               949.4435
 601               951.0591
 602               952.6749
 603               954.2911
 604               955.9076
 605               957.5244
 606               959.1416
 607               960.7591
 608               962.3769
 609               963.9951
 610               965.6136
 611               967.2324
 612               968.8516
 613               970.4711
 614               972.0909
 615               973.7111
 616               975.3316
 617               976.9525
 618               978.5737
 619               980.1952
 620               981.8171
 621               983.4394
 622               985.0620
 623               986.6850
 624               988.3083
 625               989.9319
 626               991.5560
 627               993.1803
 628               994.8051
 629               996.4302
 630               998.0557
 631               999.6815
 632              1001.3077
 633              1002.9342
 634              1004.5611
 635              1006.1884
 636              1007.8161
 637              1009.4441
 638              1011.0725
 639              1012.7013
 640              1014.3305
 641              1015.9600
 642              1017.5899
 643              1019.2202
 644              1020.8509
 645              1022.4819
 646              1024.1134
 647              1025.7452
 648              1027.3774
 649              1029.0100
 650              1030.6430
 651              1032.2764
 652              1033.9101
 653              1035.5443
 654              1037.1788
 655              1038.8138
 656              1040.4491
 657              1042.0849
 658              1043.7210
 659              1045.3576
 660              1046.9945
 661              1048.6319
 662              1050.2696
 663              1051.9078
 664              1053.5464
 665              1055.1853
 666              1056.8247
 667              1058.4645
 668              1060.1048
 669              1061.7454
 670              1063.3864
 671              1065.0279
 672              1066.6698
 673              1068.3121
 674              1069.9548
 675              1071.5980
 676              1073.2415
 677              1074.8855
 678              1076.5299
 679              1078.1748
 680              1079.8201
 681              1081.4658
 682              1083.1119
 683              1084.7585
 684              1086.4055
 685              1088.0529
 686              1089.7008
 687              1091.3491
 688              1092.9979
 689              1094.6471
 690              1096.2967
 691              1097.9468
 692              1099.5973
 693              1101.2483
 694              1102.8997
 695              1104.5516
 696              1106.2039
 697              1107.8566
 698              1109.5099
 699              1111.1635
 700              1112.8176
 701              1114.4722
 702              1116.1273
 703              1117.7828
 704              1119.4387
 705              1121.0951
 706              1122.7520
 707              1124.4093
 708              1126.0671
 709              1127.7254
 710              1129.3841
 711              1131.0434
